#k			0S(k)_ 1_ 1
1.000000e-01		2.181413e-02
2.000000e-01		2.180281e-02
3.000000e-01		2.178624e-02
4.000000e-01		2.176768e-02
5.000000e-01		2.175128e-02
6.000000e-01		2.174183e-02
7.000000e-01		2.174438e-02
8.000000e-01		2.176408e-02
9.000000e-01		2.180587e-02
1.000000e+00		2.187443e-02
1.100000e+00		2.197410e-02
1.200000e+00		2.210883e-02
1.300000e+00		2.228227e-02
1.400000e+00		2.249782e-02
1.500000e+00		2.275871e-02
1.600000e+00		2.306810e-02
1.700000e+00		2.342917e-02
1.800000e+00		2.384523e-02
1.900000e+00		2.431980e-02
2.000000e+00		2.485671e-02
2.100000e+00		2.546021e-02
2.200000e+00		2.613502e-02
2.300000e+00		2.688647e-02
2.400000e+00		2.772060e-02
2.500000e+00		2.864424e-02
2.600000e+00		2.966520e-02
2.700000e+00		3.079234e-02
2.800000e+00		3.203583e-02
2.900000e+00		3.340728e-02
3.000000e+00		3.491998e-02
3.100000e+00		3.658924e-02
3.200000e+00		3.843263e-02
3.300000e+00		4.047047e-02
3.400000e+00		4.272624e-02
3.500000e+00		4.522720e-02
3.600000e+00		4.800509e-02
3.700000e+00		5.109700e-02
3.800000e+00		5.454644e-02
3.900000e+00		5.840465e-02
4.000000e+00		6.273228e-02
4.100000e+00		6.760145e-02
4.200000e+00		7.309834e-02
4.300000e+00		7.932654e-02
4.400000e+00		8.641131e-02
4.500000e+00		9.450504e-02
4.600000e+00		1.037945e-01
4.700000e+00		1.145102e-01
4.800000e+00		1.269388e-01
4.900000e+00		1.414405e-01
5.000000e+00		1.584709e-01
5.100000e+00		1.786136e-01
5.200000e+00		2.026232e-01
5.300000e+00		2.314874e-01
5.400000e+00		2.665164e-01
5.500000e+00		3.094722e-01
5.600000e+00		3.627613e-01
5.700000e+00		4.297261e-01
5.800000e+00		5.150937e-01
5.900000e+00		6.256798e-01
6.000000e+00		7.715139e-01
6.100000e+00		9.676571e-01
6.200000e+00		1.237146e+00
6.300000e+00		1.615634e+00
6.400000e+00		2.158001e+00
6.500000e+00		2.944597e+00
6.600000e+00		4.073168e+00
6.700000e+00		5.587295e+00
6.800000e+00		7.253994e+00
6.900000e+00		8.335274e+00
7.000000e+00		8.119695e+00
7.100000e+00		6.884601e+00
7.200000e+00		5.431233e+00
7.300000e+00		4.207616e+00
7.400000e+00		3.291288e+00
7.500000e+00		2.627215e+00
7.600000e+00		2.145304e+00
7.700000e+00		1.790535e+00
7.800000e+00		1.524531e+00
7.900000e+00		1.321349e+00
8.000000e+00		1.163461e+00
8.100000e+00		1.038882e+00
8.200000e+00		9.392816e-01
8.300000e+00		8.587666e-01
8.400000e+00		7.930934e-01
8.500000e+00		7.391566e-01
8.600000e+00		6.946486e-01
8.700000e+00		6.578319e-01
8.800000e+00		6.273825e-01
8.900000e+00		6.022814e-01
9.000000e+00		5.817384e-01
9.100000e+00		5.651367e-01
9.200000e+00		5.519940e-01
9.300000e+00		5.419327e-01
9.400000e+00		5.346592e-01
9.500000e+00		5.299470e-01
9.600000e+00		5.276253e-01
9.700000e+00		5.275697e-01
9.800000e+00		5.296950e-01
9.900000e+00		5.339505e-01
1.000000e+01		5.403155e-01
1.010000e+01		5.487962e-01
1.020000e+01		5.594235e-01
1.030000e+01		5.722510e-01
1.040000e+01		5.873526e-01
1.050000e+01		6.048212e-01
1.060000e+01		6.247665e-01
1.070000e+01		6.473119e-01
1.080000e+01		6.725918e-01
1.090000e+01		7.007458e-01
1.100000e+01		7.319130e-01
1.110000e+01		7.662230e-01
1.120000e+01		8.037839e-01
1.130000e+01		8.446671e-01
1.140000e+01		8.888883e-01
1.150000e+01		9.363836e-01
1.160000e+01		9.869812e-01
1.170000e+01		1.040370e+00
1.180000e+01		1.096068e+00
1.190000e+01		1.153390e+00
1.200000e+01		1.211426e+00
1.210000e+01		1.269031e+00
1.220000e+01		1.324845e+00
1.230000e+01		1.377330e+00
1.240000e+01		1.424853e+00
1.250000e+01		1.465799e+00
1.260000e+01		1.498697e+00
1.270000e+01		1.522365e+00
1.280000e+01		1.536027e+00
1.290000e+01		1.539394e+00
1.300000e+01		1.532683e+00
1.310000e+01		1.516585e+00
1.320000e+01		1.492176e+00
1.330000e+01		1.460794e+00
1.340000e+01		1.423913e+00
1.350000e+01		1.383020e+00
1.360000e+01		1.339521e+00
1.370000e+01		1.294674e+00
1.380000e+01		1.249552e+00
1.390000e+01		1.205030e+00
1.400000e+01		1.161795e+00
1.410000e+01		1.120357e+00
1.420000e+01		1.081080e+00
1.430000e+01		1.044203e+00
1.440000e+01		1.009869e+00
1.450000e+01		9.781439e-01
1.460000e+01		9.490360e-01
1.470000e+01		9.225145e-01
1.480000e+01		8.985205e-01
1.490000e+01		8.769772e-01
1.500000e+01		8.577980e-01
1.510000e+01		8.408916e-01
1.520000e+01		8.261668e-01
1.530000e+01		8.135351e-01
1.540000e+01		8.029125e-01
1.550000e+01		7.942213e-01
1.560000e+01		7.873903e-01
1.570000e+01		7.823554e-01
1.580000e+01		7.790596e-01
1.590000e+01		7.774523e-01
1.600000e+01		7.774893e-01
1.610000e+01		7.791318e-01
1.620000e+01		7.823457e-01
1.630000e+01		7.871006e-01
1.640000e+01		7.933685e-01
1.650000e+01		8.011230e-01
1.660000e+01		8.103370e-01
1.670000e+01		8.209817e-01
1.680000e+01		8.330246e-01
1.690000e+01		8.464271e-01
1.700000e+01		8.611425e-01
1.710000e+01		8.771135e-01
1.720000e+01		8.942694e-01
1.730000e+01		9.125235e-01
1.740000e+01		9.317704e-01
1.750000e+01		9.518833e-01
1.760000e+01		9.727118e-01
1.770000e+01		9.940800e-01
1.780000e+01		1.015785e+00
1.790000e+01		1.037599e+00
1.800000e+01		1.059268e+00
1.810000e+01		1.080514e+00
1.820000e+01		1.101044e+00
1.830000e+01		1.120553e+00
1.840000e+01		1.138731e+00
1.850000e+01		1.155277e+00
1.860000e+01		1.169906e+00
1.870000e+01		1.182361e+00
1.880000e+01		1.192426e+00
1.890000e+01		1.199931e+00
1.900000e+01		1.204765e+00
1.910000e+01		1.206877e+00
1.920000e+01		1.206281e+00
1.930000e+01		1.203051e+00
1.940000e+01		1.197319e+00
1.950000e+01		1.189268e+00
1.960000e+01		1.179122e+00
1.970000e+01		1.167135e+00
1.980000e+01		1.153581e+00
1.990000e+01		1.138746e+00
